#K-Path          Energy    tot
# NKPTS & NBANDS:  99  48
# Band-Index    1
    3.14422    -17.148916    0.720
    3.10269    -17.143055    0.720
    3.06117    -17.125318    0.720
    3.01964    -17.095826    0.719
    2.97811    -17.054841    0.720
    2.93658    -17.002605    0.719
    2.89505    -16.939419    0.721
    2.85352    -16.865713    0.720
    2.81200    -16.781900    0.720
    2.77047    -16.688624    0.721
    2.72894    -16.586507    0.721
    2.68741    -16.476272    0.722
    2.64588    -16.358684    0.722
    2.60436    -16.234661    0.722
    2.56283    -16.105200    0.724
    2.52130    -15.971403    0.725
    2.47977    -15.834460    0.727
    2.43824    -15.695635    0.728
    2.39671    -15.556356    0.730
    2.35519    -15.418150    0.733
    2.31366    -15.282607    0.736
    2.27213    -15.151409    0.739
    2.23060    -15.026277    0.744
    2.18907    -14.908887    0.749
    2.14755    -14.800886    0.754
    2.10602    -14.703760    0.761
    2.06449    -14.618733    0.769
    2.02296    -14.546795    0.776
    1.98143    -14.488555    0.785
    1.93990    -14.444225    0.793
    1.89838    -14.413601    0.799
    1.85685    -14.396034    0.804
    1.81532    -14.390482    0.804
    1.81532    -14.390482    0.804
    1.79456    -14.391786    0.804
    1.77379    -14.395565    0.804
    1.75303    -14.401623    0.802
    1.73226    -14.409748    0.800
    1.71150    -14.419728    0.798
    1.69074    -14.431357    0.796
    1.66997    -14.444418    0.795
    1.64921    -14.458708    0.792
    1.62844    -14.474025    0.790
    1.60768    -14.490172    0.788
    1.58692    -14.506953    0.787
    1.56615    -14.524194    0.784
    1.54539    -14.541717    0.784
    1.52462    -14.559353    0.782
    1.50386    -14.576948    0.781
    1.48309    -14.594346    0.779
    1.46233    -14.611406    0.779
    1.44157    -14.627994    0.777
    1.42080    -14.643985    0.777
    1.40004    -14.659263    0.776
    1.37927    -14.673719    0.776
    1.35851    -14.687249    0.775
    1.33775    -14.699769    0.775
    1.31698    -14.711190    0.774
    1.29622    -14.721442    0.774
    1.27545    -14.730457    0.773
    1.25469    -14.738179    0.774
    1.23393    -14.744559    0.774
    1.21316    -14.749558    0.773
    1.19240    -14.753144    0.773
    1.17163    -14.755291    0.773
    1.15087    -14.755998    0.772
    1.15087    -14.755998    0.772
    1.11490    -14.764254    0.772
    1.07894    -14.788854    0.769
    1.04297    -14.829093    0.766
    1.00701    -14.883898    0.761
    0.97104    -14.951898    0.756
    0.93508    -15.031551    0.751
    0.89912    -15.121233    0.747
    0.86315    -15.219276    0.743
    0.82719    -15.324056    0.738
    0.79122    -15.434023    0.735
    0.75526    -15.547695    0.733
    0.71929    -15.663712    0.730
    0.68333    -15.780812    0.728
    0.64736    -15.897787    0.726
    0.61140    -16.013597    0.725
    0.57543    -16.127334    0.724
    0.53947    -16.238056    0.723
    0.50350    -16.345007    0.722
    0.46754    -16.447435    0.721
    0.43158    -16.544700    0.722
    0.39561    -16.636231    0.721
    0.35965    -16.721532    0.720
    0.32368    -16.800010    0.721
    0.28772    -16.871328    0.720
    0.25175    -16.935089    0.721
    0.21579    -16.991018    0.719
    0.17982    -17.038800    0.720
    0.14386    -17.078195    0.720
    0.10789    -17.109022    0.720
    0.07193    -17.131204    0.720
    0.03596    -17.144514    0.720
    0.00000    -17.148916    0.720

# Band-Index    2
    0.00000    -16.572996    0.030
    0.03596    -16.568956    0.030
    0.07193    -16.557012    0.030
    0.10789    -16.537149    0.030
    0.14386    -16.509449    0.031
    0.17982    -16.474060    0.031
    0.21579    -16.431081    0.032
    0.25175    -16.380865    0.032
    0.28772    -16.323647    0.034
    0.32368    -16.259700    0.035
    0.35965    -16.189377    0.036
    0.39561    -16.113018    0.037
    0.43158    -16.031128    0.037
    0.46754    -15.944191    0.039
    0.50350    -15.852748    0.041
    0.53947    -15.757466    0.043
    0.57543    -15.659044    0.045
    0.61140    -15.558230    0.049
    0.64736    -15.455916    0.052
    0.68333    -15.352970    0.056
    0.71929    -15.250402    0.059
    0.75526    -15.149288    0.065
    0.79122    -15.050910    0.072
    0.82719    -14.956506    0.082
    0.86315    -14.867444    0.094
    0.89912    -14.785121    0.112
    0.93508    -14.711005    0.139
    0.97104    -14.646555    0.178
    1.00701    -14.593112    0.236
    1.04297    -14.551705    0.312
    1.07894    -14.522726    0.391
    1.11490    -14.505817    0.449
    1.15087    -14.500305    0.471
    1.15087    -14.500305    0.471
    1.17163    -14.499788    0.471
    1.19240    -14.498222    0.474
    1.21316    -14.495609    0.478
    1.23393    -14.491976    0.485
    1.25469    -14.487349    0.494
    1.27545    -14.481771    0.504
    1.29622    -14.475289    0.516
    1.31698    -14.467956    0.531
    1.33775    -14.459838    0.546
    1.35851    -14.451000    0.562
    1.37927    -14.441522    0.580
    1.40004    -14.431478    0.598
    1.42080    -14.420959    0.617
    1.44157    -14.410054    0.636
    1.46233    -14.398854    0.656
    1.48309    -14.387458    0.674
    1.50386    -14.375961    0.693
    1.52462    -14.364464    0.710
    1.54539    -14.353070    0.726
    1.56615    -14.341879    0.740
    1.58692    -14.330996    0.754
    1.60768    -14.320529    0.767
    1.62844    -14.310573    0.778
    1.64921    -14.301241    0.788
    1.66997    -14.292637    0.798
    1.69074    -14.284866    0.804
    1.71150    -14.278028    0.811
    1.73226    -14.272225    0.816
    1.75303    -14.267554    0.821
    1.77379    -14.264109    0.824
    1.79456    -14.261981    0.826
    1.81532    -14.261250    0.827
    1.81532    -14.261250    0.827
    1.85685    -14.264306    0.824
    1.89838    -14.273889    0.813
    1.93990    -14.290604    0.790
    1.98143    -14.315204    0.746
    2.02296    -14.348915    0.666
    2.06449    -14.393795    0.533
    2.10602    -14.452191    0.377
    2.14755    -14.524752    0.251
    2.18907    -14.610031    0.174
    2.23060    -14.705913    0.129
    2.27213    -14.810375    0.102
    2.31366    -14.921593    0.085
    2.35519    -15.037838    0.073
    2.39671    -15.157444    0.064
    2.43824    -15.278873    0.059
    2.47977    -15.400631    0.054
    2.52130    -15.521342    0.050
    2.56283    -15.639755    0.046
    2.60436    -15.754717    0.043
    2.64588    -15.865110    0.041
    2.68741    -15.970053    0.038
    2.72894    -16.068632    0.038
    2.77047    -16.160028    0.036
    2.81200    -16.243578    0.035
    2.85352    -16.318684    0.034
    2.89505    -16.384779    0.032
    2.93658    -16.441507    0.031
    2.97811    -16.488414    0.031
    3.01964    -16.525289    0.031
    3.06117    -16.551745    0.030
    3.10269    -16.567657    0.030
    3.14422    -16.572996    0.030

# Band-Index    3
    3.14422    -15.492243    0.514
    3.10269    -15.489604    0.515
    3.06117    -15.481400    0.515
    3.01964    -15.467969    0.518
    2.97811    -15.449245    0.520
    2.93658    -15.425299    0.525
    2.89505    -15.396345    0.529
    2.85352    -15.362593    0.536
    2.81200    -15.324276    0.541
    2.77047    -15.281683    0.549
    2.72894    -15.235110    0.557
    2.68741    -15.184911    0.567
    2.64588    -15.131428    0.576
    2.60436    -15.075215    0.588
    2.56283    -15.016644    0.598
    2.52130    -14.956251    0.610
    2.47977    -14.894536    0.622
    2.43824    -14.832048    0.634
    2.39671    -14.769361    0.645
    2.35519    -14.707087    0.653
    2.31366    -14.645802    0.660
    2.27213    -14.586078    0.659
    2.23060    -14.528393    0.649
    2.18907    -14.473053    0.619
    2.14755    -14.420058    0.553
    2.10602    -14.369067    0.439
    2.06449    -14.320036    0.289
    2.02296    -14.274644    0.164
    1.98143    -14.235728    0.084
    1.93990    -14.205305    0.040
    1.89838    -14.184066    0.015
    1.85685    -14.171820    0.003
    1.81532    -14.167924    0.000
    1.81532    -14.167924    0.000
    1.79456    -14.168837    0.001
    1.77379    -14.171506    0.003
    1.75303    -14.175813    0.007
    1.73226    -14.181624    0.012
    1.71150    -14.188801    0.017
    1.69074    -14.197211    0.025
    1.66997    -14.206701    0.031
    1.64921    -14.217129    0.041
    1.62844    -14.228347    0.051
    1.60768    -14.240206    0.062
    1.58692    -14.252555    0.074
    1.56615    -14.265256    0.087
    1.54539    -14.278168    0.101
    1.52462    -14.291157    0.118
    1.50386    -14.304096    0.133
    1.48309    -14.316866    0.151
    1.46233    -14.329355    0.168
    1.44157    -14.341459    0.186
    1.42080    -14.353086    0.205
    1.40004    -14.364153    0.222
    1.37927    -14.374584    0.239
    1.35851    -14.384309    0.257
    1.33775    -14.393274    0.272
    1.31698    -14.401421    0.288
    1.29622    -14.408710    0.300
    1.27545    -14.415099    0.312
    1.25469    -14.420557    0.321
    1.23393    -14.425054    0.330
    1.21316    -14.428571    0.335
    1.19240    -14.431088    0.341
    1.17163    -14.432591    0.344
    1.15087    -14.433085    0.344
    1.15087    -14.433085    0.344
    1.11490    -14.437287    0.366
    1.07894    -14.449475    0.421
    1.04297    -14.468471    0.496
    1.00701    -14.493044    0.565
    0.97104    -14.522391    0.614
    0.93508    -14.556039    0.644
    0.89912    -14.593629    0.659
    0.86315    -14.634743    0.664
    0.82719    -14.678899    0.662
    0.79122    -14.725587    0.656
    0.75526    -14.774246    0.648
    0.71929    -14.824338    0.640
    0.68333    -14.875304    0.630
    0.64736    -14.926609    0.619
    0.61140    -14.977770    0.608
    0.57543    -15.028340    0.598
    0.53947    -15.077881    0.587
    0.50350    -15.125942    0.578
    0.46754    -15.172184    0.569
    0.43158    -15.216291    0.561
    0.39561    -15.257854    0.553
    0.35965    -15.296687    0.547
    0.32368    -15.332501    0.541
    0.28772    -15.365106    0.535
    0.25175    -15.394305    0.530
    0.21579    -15.419934    0.525
    0.17982    -15.441848    0.523
    0.14386    -15.459859    0.519
    0.10789    -15.473944    0.517
    0.07193    -15.484070    0.515
    0.03596    -15.490258    0.515
    0.00000    -15.492243    0.514

# Band-Index    4
    0.00000    -15.143936    0.179
    0.03596    -15.142192    0.179
    0.07193    -15.136697    0.179
    0.10789    -15.127715    0.178
    0.14386    -15.115223    0.176
    0.17982    -15.099223    0.175
    0.21579    -15.079795    0.175
    0.25175    -15.057097    0.172
    0.28772    -15.031227    0.170
    0.32368    -15.002332    0.166
    0.35965    -14.970617    0.163
    0.39561    -14.936249    0.159
    0.43158    -14.899487    0.156
    0.46754    -14.860484    0.152
    0.50350    -14.819707    0.146
    0.53947    -14.777373    0.141
    0.57543    -14.733818    0.135
    0.61140    -14.689409    0.129
    0.64736    -14.644573    0.122
    0.68333    -14.599721    0.114
    0.71929    -14.555292    0.105
    0.75526    -14.511782    0.097
    0.79122    -14.469694    0.088
    0.82719    -14.429527    0.079
    0.86315    -14.391818    0.070
    0.89912    -14.357039    0.061
    0.93508    -14.325701    0.051
    0.97104    -14.298264    0.044
    1.00701    -14.275132    0.036
    1.04297    -14.256690    0.031
    1.07894    -14.243248    0.026
    1.11490    -14.235075    0.023
    1.15087    -14.232340    0.023
    1.15087    -14.232340    0.023
    1.17163    -14.231939    0.023
    1.19240    -14.230716    0.023
    1.21316    -14.228672    0.023
    1.23393    -14.225824    0.023
    1.25469    -14.222191    0.022
    1.27545    -14.217799    0.022
    1.29622    -14.212680    0.021
    1.31698    -14.206869    0.020
    1.33775    -14.200412    0.020
    1.35851    -14.193352    0.020
    1.37927    -14.185745    0.019
    1.40004    -14.177645    0.018
    1.42080    -14.169118    0.016
    1.44157    -14.160230    0.015
    1.46233    -14.151053    0.015
    1.48309    -14.141666    0.014
    1.50386    -14.132145    0.013
    1.52462    -14.122575    0.012
    1.54539    -14.113044    0.011
    1.56615    -14.103641    0.010
    1.58692    -14.094458    0.008
    1.60768    -14.085592    0.006
    1.62844    -14.077129    0.006
    1.64921    -14.069172    0.005
    1.66997    -14.061817    0.004
    1.69074    -14.055158    0.003
    1.71150    -14.049288    0.002
    1.73226    -14.044301    0.001
    1.75303    -14.040283    0.001
    1.77379    -14.037321    0.000
    1.79456    -14.035495    0.000
    1.81532    -14.034871    0.000
    1.81532    -14.034871    0.000
    1.85685    -14.037479    0.000
    1.89838    -14.045518    0.001
    1.93990    -14.059164    0.004
    1.98143    -14.078400    0.009
    2.02296    -14.103065    0.014
    2.06449    -14.132898    0.021
    2.10602    -14.167563    0.029
    2.14755    -14.206658    0.038
    2.18907    -14.249732    0.048
    2.23060    -14.296263    0.059
    2.27213    -14.345692    0.069
    2.31366    -14.397423    0.080
    2.35519    -14.450852    0.090
    2.39671    -14.505366    0.101
    2.43824    -14.560398    0.110
    2.47977    -14.615352    0.119
    2.52130    -14.669724    0.127
    2.56283    -14.722997    0.135
    2.60436    -14.774694    0.141
    2.64588    -14.824363    0.147
    2.68741    -14.871594    0.152
    2.72894    -14.915975    0.157
    2.77047    -14.957308    0.162
    2.81200    -14.995045    0.166
    2.85352    -15.029005    0.169
    2.89505    -15.058908    0.172
    2.93658    -15.084597    0.175
    2.97811    -15.105801    0.176
    3.01964    -15.122460    0.177
    3.06117    -15.134329    0.179
    3.10269    -15.141564    0.179
    3.14422    -15.143936    0.179

# Band-Index    5
    3.14422    -8.072712    0.573
    3.10269    -8.065665    0.574
    3.06117    -8.043915    0.572
    3.01964    -8.008056    0.571
    2.97811    -7.958358    0.568
    2.93658    -7.895685    0.565
    2.89505    -7.820623    0.561
    2.85352    -7.734446    0.557
    2.81200    -7.638412    0.552
    2.77047    -7.534455    0.545
    2.72894    -7.424402    0.539
    2.68741    -7.310945    0.529
    2.64588    -7.197916    0.519
    2.60436    -7.090174    0.508
    2.56283    -6.994018    0.498
    2.52130    -6.918308    0.491
    2.47977    -6.872590    0.498
    2.43824    -6.863621    0.527
    2.39671    -6.890201    0.570
    2.35519    -6.941316    0.610
    2.31366    -7.002469    0.637
    2.27213    -7.061645    0.652
    2.23060    -7.110816    0.659
    2.18907    -7.144952    0.662
    2.14755    -7.160950    0.662
    2.10602    -7.157117    0.661
    2.06449    -7.133019    0.663
    2.02296    -7.090572    0.663
    1.98143    -7.061106    0.691
    1.93990    -7.112670    0.711
    1.89838    -7.155395    0.714
    1.85685    -7.180844    0.715
    1.81532    -7.189142    0.716
    1.81532    -7.189142    0.716
    1.79456    -7.187153    0.716
    1.77379    -7.181315    0.715
    1.75303    -7.171876    0.715
    1.73226    -7.159122    0.714
    1.71150    -7.143481    0.711
    1.69074    -7.125791    0.707
    1.66997    -7.109706    0.693
    1.64921    -7.124942    0.654
    1.62844    -7.178862    0.649
    1.60768    -7.238674    0.649
    1.58692    -7.299327    0.649
    1.56615    -7.359619    0.647
    1.54539    -7.418898    0.647
    1.52462    -7.476718    0.645
    1.50386    -7.532752    0.645
    1.48309    -7.586705    0.644
    1.46233    -7.638342    0.645
    1.44157    -7.687453    0.645
    1.42080    -7.733856    0.645
    1.40004    -7.777397    0.644
    1.37927    -7.817935    0.645
    1.35851    -7.855329    0.645
    1.33775    -7.889491    0.645
    1.31698    -7.920307    0.645
    1.29622    -7.947693    0.645
    1.27545    -7.971572    0.645
    1.25469    -7.991887    0.646
    1.23393    -8.008575    0.645
    1.21316    -8.021590    0.645
    1.19240    -8.030906    0.646
    1.17163    -8.036472    0.646
    1.15087    -8.038328    0.646
    1.15087    -8.038328    0.646
    1.11490    -8.029269    0.647
    1.07894    -8.002390    0.649
    1.04297    -7.958374    0.652
    1.00701    -7.898366    0.657
    0.97104    -7.823833    0.661
    0.93508    -7.736635    0.667
    0.89912    -7.639044    0.672
    0.86315    -7.533813    0.675
    0.82719    -7.424392    0.675
    0.79122    -7.315555    0.669
    0.75526    -7.213606    0.655
    0.71929    -7.127374    0.628
    0.68333    -7.066519    0.592
    0.64736    -7.038157    0.560
    0.61140    -7.044000    0.538
    0.57543    -7.080130    0.528
    0.53947    -7.139522    0.526
    0.50350    -7.215168    0.529
    0.46754    -7.300930    0.533
    0.43158    -7.391649    0.539
    0.39561    -7.483580    0.543
    0.35965    -7.574101    0.549
    0.32368    -7.660688    0.553
    0.28772    -7.741765    0.558
    0.25175    -7.815802    0.561
    0.21579    -7.881926    0.565
    0.17982    -7.938992    0.568
    0.14386    -7.986647    0.570
    0.10789    -8.024113    0.571
    0.07193    -8.051103    0.573
    0.03596    -8.067374    0.574
    0.00000    -8.072712    0.573

# Band-Index    6
    0.00000    -7.121378    0.126
    0.03596    -7.116757    0.126
    0.07193    -7.102361    0.126
    0.10789    -7.078218    0.128
    0.14386    -7.044701    0.129
    0.17982    -7.002426    0.130
    0.21579    -6.952155    0.132
    0.25175    -6.894409    0.135
    0.28772    -6.831026    0.138
    0.32368    -6.762753    0.142
    0.35965    -6.691856    0.146
    0.39561    -6.620741    0.153
    0.43158    -6.552710    0.158
    0.46754    -6.492142    0.167
    0.50350    -6.444859    0.176
    0.53947    -6.418119    0.188
    0.57543    -6.419897    0.201
    0.61140    -6.454445    0.210
    0.64736    -6.517640    0.203
    0.68333    -6.597989    0.174
    0.71929    -6.685345    0.133
    0.75526    -6.774505    0.096
    0.79122    -6.864011    0.067
    0.82719    -6.952597    0.050
    0.86315    -7.038790    0.038
    0.89912    -7.120718    0.030
    0.93508    -7.196459    0.026
    0.97104    -7.264179    0.022
    1.00701    -7.322153    0.019
    1.04297    -7.368911    0.019
    1.07894    -7.403242    0.017
    1.11490    -7.424223    0.017
    1.15087    -7.431308    0.017
    1.15087    -7.431308    0.017
    1.17163    -7.429533    0.017
    1.19240    -7.424211    0.017
    1.21316    -7.415284    0.017
    1.23393    -7.402812    0.017
    1.25469    -7.386803    0.017
    1.27545    -7.367300    0.017
    1.29622    -7.344356    0.017
    1.31698    -7.318015    0.017
    1.33775    -7.288349    0.017
    1.35851    -7.255417    0.018
    1.37927    -7.219322    0.018
    1.40004    -7.180132    0.018
    1.42080    -7.137971    0.018
    1.44157    -7.092968    0.018
    1.46233    -7.045292    0.018
    1.48309    -6.995176    0.019
    1.50386    -6.943195    0.021
    1.52462    -6.904769    0.518
    1.54539    -6.931677    0.673
    1.56615    -6.961362    0.686
    1.58692    -6.990638    0.693
    1.60768    -7.018794    0.700
    1.62844    -7.044733    0.704
    1.64921    -7.063762    0.703
    1.66997    -7.043718    0.664
    1.69074    -6.993241    0.635
    1.71150    -6.946549    0.508
    1.73226    -6.931206    0.086
    1.75303    -6.939181    0.018
    1.77379    -6.947359    0.010
    1.79456    -6.952730    0.007
    1.81532    -6.954598    0.007
    1.81532    -6.954598    0.007
    1.85685    -6.946666    0.007
    1.89838    -6.922143    0.010
    1.93990    -6.947237    0.681
    1.98143    -7.010151    0.691
    2.02296    -6.961930    0.709
    2.06449    -6.866586    0.692
    2.10602    -6.760504    0.600
    2.14755    -6.703623    0.154
    2.18907    -6.697947    0.064
