#K-Path(1/A) Energy-Level(eV)
# NKPTS & NBANDS: 124  48
# Band-Index    1
   0.00000    -61.109427
   0.04427    -61.109270
   0.08854    -61.108812
   0.13282    -61.108054
   0.17709    -61.107006
   0.22136    -61.105690
   0.26563    -61.104121
   0.30991    -61.102317
   0.35418    -61.100304
   0.39845    -61.098119
   0.44272    -61.095780
   0.48700    -61.093332
   0.53127    -61.090799
   0.57554    -61.088217
   0.61981    -61.085621
   0.66408    -61.083040
   0.70836    -61.080511
   0.75263    -61.078063
   0.79690    -61.075719
   0.84117    -61.073515
   0.88545    -61.071464
   0.92972    -61.069589
   0.97399    -61.067903
   1.01826    -61.066418
   1.06254    -61.065148
   1.10681    -61.064091
   1.15108    -61.063242
   1.19535    -61.062602
   1.23962    -61.062159
   1.28390    -61.061907
   1.32817    -61.061824
   1.32817    -61.061824
   1.35031    -61.061845
   1.37244    -61.061899
   1.39458    -61.061990
   1.41671    -61.062110
   1.43885    -61.062257
   1.46099    -61.062432
   1.48312    -61.062634
   1.50526    -61.062851
   1.52739    -61.063083
   1.54953    -61.063333
   1.57167    -61.063592
   1.59380    -61.063859
   1.61594    -61.064130
   1.63808    -61.064404
   1.66021    -61.064672
   1.68235    -61.064943
   1.70448    -61.065208
   1.72662    -61.065461
   1.74876    -61.065703
   1.77089    -61.065934
   1.79303    -61.066147
   1.81517    -61.066344
   1.83730    -61.066525
   1.85944    -61.066684
   1.88157    -61.066822
   1.90371    -61.066934
   1.92585    -61.067023
   1.94798    -61.067087
   1.97012    -61.067126
   1.99225    -61.067138
   1.99225    -61.067138
   2.01439    -61.067126
   2.03653    -61.067087
   2.05866    -61.067022
   2.08080    -61.066934
   2.10294    -61.066821
   2.12507    -61.066684
   2.14721    -61.066524
   2.16934    -61.066343
   2.19148    -61.066146
   2.21362    -61.065933
   2.23575    -61.065703
   2.25789    -61.065460
   2.28002    -61.065207
   2.30216    -61.064942
   2.32430    -61.064671
   2.34643    -61.064403
   2.36857    -61.064129
   2.39071    -61.063858
   2.41284    -61.063590
   2.43498    -61.063332
   2.45711    -61.063082
   2.47925    -61.062850
   2.50139    -61.062632
   2.52352    -61.062431
   2.54566    -61.062256
   2.56779    -61.062108
   2.58993    -61.061989
   2.61207    -61.061898
   2.63420    -61.061844
   2.65634    -61.061822
   2.65634    -61.061822
   2.70061    -61.061905
   2.74488    -61.062158
   2.78916    -61.062600
   2.83343    -61.063241
   2.87770    -61.064090
   2.92197    -61.065147
   2.96625    -61.066417
   3.01052    -61.067902
   3.05479    -61.069587
   3.09906    -61.071463
   3.14334    -61.073514
   3.18761    -61.075718
   3.23188    -61.078062
   3.27615    -61.080510
   3.32043    -61.083039
   3.36470    -61.085620
   3.40897    -61.088217
   3.45324    -61.090798
   3.49752    -61.093331
   3.54179    -61.095779
   3.58606    -61.098118
   3.63033    -61.100303
   3.67461    -61.102317
   3.71888    -61.104121
   3.76315    -61.105690
   3.80742    -61.107006
   3.85169    -61.108054
   3.89597    -61.108812
   3.94024    -61.109270
   3.98451    -61.109427
 
# Band-Index    2
   3.98451    -61.109415
   3.94024    -61.109258
   3.89597    -61.108799
   3.85169    -61.108041
   3.80742    -61.106993
   3.76315    -61.105678
   3.71888    -61.104108
   3.67461    -61.102305
   3.63033    -61.100291
   3.58606    -61.098106
   3.54179    -61.095767
   3.49752    -61.093319
   3.45324    -61.090786
   3.40897    -61.088205
   3.36470    -61.085608
   3.32043    -61.083027
   3.27615    -61.080498
   3.23188    -61.078050
   3.18761    -61.075706
   3.14334    -61.073502
   3.09906    -61.071451
   3.05479    -61.069575
   3.01052    -61.067890
   2.96625    -61.066405
   2.92197    -61.065135
   2.87770    -61.064078
   2.83343    -61.063229
   2.78916    -61.062589
   2.74488    -61.062146
   2.70061    -61.061894
   2.65634    -61.061811
   2.65634    -61.061811
   2.63420    -61.061833
   2.61207    -61.061886
   2.58993    -61.061977
   2.56779    -61.062097
   2.54566    -61.062244
   2.52352    -61.062419
   2.50139    -61.062621
   2.47925    -61.062838
   2.45711    -61.063070
   2.43498    -61.063320
   2.41284    -61.063579
   2.39071    -61.063846
   2.36857    -61.064117
   2.34643    -61.064391
   2.32430    -61.064659
   2.30216    -61.064930
   2.28002    -61.065195
   2.25789    -61.065448
   2.23575    -61.065691
   2.21362    -61.065921
   2.19148    -61.066134
   2.16934    -61.066331
   2.14721    -61.066512
   2.12507    -61.066672
   2.10294    -61.066809
   2.08080    -61.066921
   2.05866    -61.067010
   2.03653    -61.067075
   2.01439    -61.067114
   1.99225    -61.067126
   1.99225    -61.067126
   1.97012    -61.067114
   1.94798    -61.067075
   1.92585    -61.067010
   1.90371    -61.066921
   1.88157    -61.066809
   1.85944    -61.066671
   1.83730    -61.066511
   1.81517    -61.066331
   1.79303    -61.066134
   1.77089    -61.065921
   1.74876    -61.065690
   1.72662    -61.065447
   1.70448    -61.065194
   1.68235    -61.064930
   1.66021    -61.064658
   1.63808    -61.064390
   1.61594    -61.064116
   1.59380    -61.063845
   1.57167    -61.063578
   1.54953    -61.063319
   1.52739    -61.063069
   1.50526    -61.062837
   1.48312    -61.062620
   1.46099    -61.062418
   1.43885    -61.062243
   1.41671    -61.062096
   1.39458    -61.061976
   1.37244    -61.061885
   1.35031    -61.061831
   1.32817    -61.061809
   1.32817    -61.061809
   1.28390    -61.061892
   1.23962    -61.062145
   1.19535    -61.062587
   1.15108    -61.063228
   1.10681    -61.064077
   1.06254    -61.065134
   1.01826    -61.066405
   0.97399    -61.067890
   0.92972    -61.069575
   0.88545    -61.071450
   0.84117    -61.073501
   0.79690    -61.075705
   0.75263    -61.078050
   0.70836    -61.080498
   0.66408    -61.083027
   0.61981    -61.085608
   0.57554    -61.088204
   0.53127    -61.090786
   0.48700    -61.093319
   0.44272    -61.095767
   0.39845    -61.098106
   0.35418    -61.100291
   0.30991    -61.102305
   0.26563    -61.104108
   0.22136    -61.105678
   0.17709    -61.106994
   0.13282    -61.108041
   0.08854    -61.108799
   0.04427    -61.109258
   0.00000    -61.109415
 
# Band-Index    3
   0.00000    -36.752560
   0.04427    -36.752959
   0.08854    -36.754160
   0.13282    -36.756161
   0.17709    -36.758952
   0.22136    -36.762514
   0.26563    -36.766816
   0.30991    -36.771821
   0.35418    -36.777477
   0.39845    -36.783726
   0.44272    -36.790496
   0.48700    -36.797708
   0.53127    -36.805271
   0.57554    -36.813088
   0.61981    -36.821053
   0.66408    -36.829059
   0.70836    -36.836995
   0.75263    -36.844752
   0.79690    -36.852225
   0.84117    -36.859318
   0.88545    -36.865940
   0.92972    -36.872016
   0.97399    -36.877484
   1.01826    -36.882298
   1.06254    -36.886428
   1.10681    -36.889861
   1.15108    -36.892597
   1.19535    -36.894656
   1.23962    -36.896069
   1.28390    -36.896878
   1.32817    -36.897135
   1.32817    -36.897135
   1.35031    -36.897075
   1.37244    -36.896898
   1.39458    -36.896615
   1.41671    -36.896231
   1.43885    -36.895756
   1.46099    -36.895197
   1.48312    -36.894565
   1.50526    -36.893864
   1.52739    -36.893103
   1.54953    -36.892291
   1.57167    -36.891435
   1.59380    -36.890541
   1.61594    -36.889616
   1.63808    -36.888668
   1.66021    -36.887701
   1.68235    -36.886724
   1.70448    -36.885740
   1.72662    -36.884756
   1.74876    -36.883775
   1.77089    -36.882803
   1.79303    -36.881844
   1.81517    -36.880903
   1.83730    -36.879984
   1.85944    -36.879089
   1.88157    -36.878221
   1.90371    -36.877385
   1.92585    -36.876583
   1.94798    -36.875818
   1.97012    -36.875091
   1.99225    -36.874416
   1.99225    -36.874416
   2.01439    -36.875061
   2.03653    -36.875787
   2.05866    -36.876553
   2.08080    -36.877355
   2.10294    -36.878191
   2.12507    -36.879058
   2.14721    -36.879954
   2.16934    -36.880873
   2.19148    -36.881814
   2.21362    -36.882773
   2.23575    -36.883745
   2.25789    -36.884726
   2.28002    -36.885711
   2.30216    -36.886694
   2.32430    -36.887672
   2.34643    -36.888638
   2.36857    -36.889587
   2.39071    -36.890511
   2.41284    -36.891405
   2.43498    -36.892262
   2.45711    -36.893074
   2.47925    -36.893834
   2.50139    -36.894536
   2.52352    -36.895168
   2.54566    -36.895727
   2.56779    -36.896202
   2.58993    -36.896586
   2.61207    -36.896870
   2.63420    -36.897046
   2.65634    -36.897106
   2.65634    -36.897106
   2.70061    -36.896850
   2.74488    -36.896040
   2.78916    -36.894627
   2.83343    -36.892568
   2.87770    -36.889832
   2.92197    -36.886399
   2.96625    -36.882269
   3.01052    -36.877455
   3.05479    -36.871987
   3.09906    -36.865910
   3.14334    -36.859288
   3.18761    -36.852195
   3.23188    -36.844722
   3.27615    -36.836964
   3.32043    -36.829028
   3.36470    -36.821023
   3.40897    -36.813057
   3.45324    -36.805240
   3.49752    -36.797677
   3.54179    -36.790465
   3.58606    -36.783694
   3.63033    -36.777445
   3.67461    -36.771789
   3.71888    -36.766785
   3.76315    -36.762482
   3.80742    -36.758921
   3.85169    -36.756132
   3.89597    -36.754146
   3.94024    -36.752957
   3.98451    -36.752560
 
# Band-Index    4
   3.98451    -36.752510
   3.94024    -36.752909
   3.89597    -36.754106
   3.85169    -36.756069
   3.80742    -36.758756
   3.76315    -36.762140
   3.71888    -36.766181
   3.67461    -36.770825
   3.63033    -36.776014
   3.58606    -36.781679
   3.54179    -36.787744
   3.49752    -36.794126
   3.45324    -36.800736
   3.40897    -36.807479
   3.36470    -36.814259
   3.32043    -36.820977
   3.27615    -36.827539
   3.23188    -36.833852
   3.18761    -36.839830
   3.14334    -36.845400
   3.09906    -36.850498
   3.05479    -36.855072
   3.01052    -36.859089
   2.96625    -36.862529
   2.92197    -36.865393
   2.87770    -36.867691
   2.83343    -36.869453
   2.78916    -36.870720
   2.74488    -36.871546
   2.70061    -36.871993
   2.65634    -36.872126
   2.65634    -36.872126
   2.63420    -36.872098
   2.61207    -36.872017
   2.58993    -36.871893
   2.56779    -36.871734
   2.54566    -36.871549
   2.52352    -36.871346
   2.50139    -36.871134
   2.47925    -36.870918
   2.45711    -36.870705
   2.43498    -36.870504
   2.41284    -36.870319
   2.39071    -36.870157
   2.36857    -36.870021
   2.34643    -36.869917
   2.32430    -36.869848
   2.30216    -36.869820
   2.28002    -36.869833
   2.25789    -36.869890
   2.23575    -36.869994
   2.21362    -36.870147
   2.19148    -36.870348
   2.16934    -36.870600
   2.14721    -36.870903
   2.12507    -36.871256
   2.10294    -36.871660
   2.08080    -36.872114
   2.05866    -36.872616
   2.03653    -36.873167
   2.01439    -36.873764
   1.99225    -36.874365
   1.99225    -36.874365
   1.97012    -36.873733
   1.94798    -36.873136
   1.92585    -36.872586
   1.90371    -36.872083
   1.88157    -36.871630
   1.85944    -36.871226
   1.83730    -36.870873
   1.81517    -36.870570
   1.79303    -36.870318
   1.77089    -36.870117
   1.74876    -36.869964
   1.72662    -36.869860
   1.70448    -36.869803
   1.68235    -36.869790
   1.66021    -36.869818
   1.63808    -36.869887
   1.61594    -36.869991
   1.59380    -36.870127
   1.57167    -36.870290
   1.54953    -36.870474
   1.52739    -36.870676
   1.50526    -36.870888
   1.48312    -36.871104
   1.46099    -36.871317
   1.43885    -36.871520
   1.41671    -36.871705
   1.39458    -36.871864
   1.37244    -36.871988
   1.35031    -36.872069
   1.32817    -36.872097
   1.32817    -36.872097
   1.28390    -36.871964
   1.23962    -36.871517
   1.19535    -36.870691
   1.15108    -36.869423
   1.10681    -36.867661
   1.06254    -36.865363
   1.01826    -36.862499
   0.97399    -36.859059
   0.92972    -36.855042
   0.88545    -36.850467
   0.84117    -36.845370
   0.79690    -36.839799
   0.75263    -36.833821
   0.70836    -36.827508
   0.66408    -36.820946
   0.61981    -36.814228
   0.57554    -36.807448
   0.53127    -36.800705
   0.48700    -36.794095
   0.44272    -36.787712
   0.39845    -36.781648
   0.35418    -36.775982
   0.30991    -36.770794
   0.26563    -36.766149
   0.22136    -36.762109
   0.17709    -36.758725
   0.13282    -36.756041
   0.08854    -36.754092
   0.04427    -36.752907
   0.00000    -36.752510
 
# Band-Index    5
   0.00000    -34.396688
   0.04427    -34.396856
   0.08854    -34.397373
   0.13282    -34.398265
   0.17709    -34.399573
   0.22136    -34.401352
   0.26563    -34.403669
   0.30991    -34.406607
   0.35418    -34.410257
   0.39845    -34.414715
   0.44272    -34.420062
   0.48700    -34.426345
   0.53127    -34.433548
   0.57554    -34.441574
   0.61981    -34.451703
   0.66408    -34.462753
   0.70836    -34.474344
   0.75263    -34.486084
   0.79690    -34.497606
   0.84117    -34.508601
   0.88545    -34.518817
   0.92972    -34.528063
   0.97399    -34.536203
   1.01826    -34.543153
   1.06254    -34.548876
   1.10681    -34.553385
   1.15108    -34.556736
   1.19535    -34.559034
   1.23962    -34.560430
   1.28390    -34.561108
   1.32817    -34.561284
   1.32817    -34.561284
   1.35031    -34.561253
   1.37244    -34.561180
   1.39458    -34.561088
   1.41671    -34.561001
   1.43885    -34.560937
   1.46099    -34.560913
   1.48312    -34.560939
   1.50526    -34.561023
   1.52739    -34.561166
   1.54953    -34.561368
   1.57167    -34.561624
   1.59380    -34.561928
   1.61594    -34.562269
   1.63808    -34.562637
   1.66021    -34.563018
   1.68235    -34.563401
   1.70448    -34.563773
   1.72662    -34.564119
   1.74876    -34.564428
   1.77089    -34.564688
   1.79303    -34.564887
   1.81517    -34.565014
   1.83730    -34.565060
   1.85944    -34.565016
   1.88157    -34.564874
   1.90371    -34.564626
   1.92585    -34.564267
   1.94798    -34.563792
   1.97012    -34.563195
   1.99225    -34.562497
   1.99225    -34.562497
   2.01439    -34.563217
   2.03653    -34.563813
   2.05866    -34.564289
   2.08080    -34.564648
   2.10294    -34.564895
   2.12507    -34.565037
   2.14721    -34.565081
   2.16934    -34.565035
   2.19148    -34.564907
   2.21362    -34.564708
   2.23575    -34.564448
   2.25789    -34.564139
   2.28002    -34.563792
   2.30216    -34.563420
   2.32430    -34.563036
   2.34643    -34.562654
   2.36857    -34.562286
   2.39071    -34.561944
   2.41284    -34.561640
   2.43498    -34.561383
   2.45711    -34.561180
   2.47925    -34.561036
   2.50139    -34.560952
   2.52352    -34.560925
   2.54566    -34.560949
   2.56779    -34.561011
   2.58993    -34.561098
   2.61207    -34.561189
   2.63420    -34.561262
   2.65634    -34.561292
   2.65634    -34.561292
   2.70061    -34.561117
   2.74488    -34.560438
   2.78916    -34.559044
   2.83343    -34.556746
   2.87770    -34.553395
   2.92197    -34.548888
   2.96625    -34.543165
   3.01052    -34.536215
   3.05479    -34.528076
   3.09906    -34.518830
   3.14334    -34.508615
   3.18761    -34.497621
   3.23188    -34.486099
   3.27615    -34.474360
   3.32043    -34.462770
   3.36470    -34.451720
   3.40897    -34.441581
   3.45324    -34.433525
   3.49752    -34.426323
   3.54179    -34.420040
   3.58606    -34.414694
   3.63033    -34.410237
   3.67461    -34.406588
   3.71888    -34.403651
   3.76315    -34.401334
   3.80742    -34.399556
   3.85169    -34.398249
   3.89597    -34.397360
   3.94024    -34.396855
   3.98451    -34.396688
 
# Band-Index    6
   3.98451    -34.396669
   3.94024    -34.396837
   3.89597    -34.397347
   3.85169    -34.398195
   3.80742    -34.399412
   3.76315    -34.401045
   3.71888    -34.403159
   3.67461    -34.405843
   3.63033    -34.409211
   3.58606    -34.413410
   3.54179    -34.418606
   3.49752    -34.424968
   3.45324    -34.432618
   3.40897    -34.441541
   3.36470    -34.450190
   3.32043    -34.459195
   3.27615    -34.468258
   3.23188    -34.477073
   3.18761    -34.485358
   3.14334    -34.492874
   3.09906    -34.499430
   3.05479    -34.504882
   3.01052    -34.509141
   2.96625    -34.512166
   2.92197    -34.513973
   2.87770    -34.514640
   2.83343    -34.514322
   2.78916    -34.513272
   2.74488    -34.511866
   2.70061    -34.510609
   2.65634    -34.510073
   2.65634    -34.510073
   2.63420    -34.510232
   2.61207    -34.510729
   2.58993    -34.511575
   2.56779    -34.512757
   2.54566    -34.514247
   2.52352    -34.516004
   2.50139    -34.517982
   2.47925    -34.520136
   2.45711    -34.522424
   2.43498    -34.524807
   2.41284    -34.527251
   2.39071    -34.529728
   2.36857    -34.532212
   2.34643    -34.534682
   2.32430    -34.537117
   2.30216    -34.539503
   2.28002    -34.541826
   2.25789    -34.544072
   2.23575    -34.546231
   2.21362    -34.548295
   2.19148    -34.550256
   2.16934    -34.552106
   2.14721    -34.553841
   2.12507    -34.555455
   2.10294    -34.556945
   2.08080    -34.558309
   2.05866    -34.559544
   2.03653    -34.560650
   2.01439    -34.561627
   1.99225    -34.562474
   1.99225    -34.562474
   1.97012    -34.561649
   1.94798    -34.560672
   1.92585    -34.559566
   1.90371    -34.558331
   1.88157    -34.556967
   1.85944    -34.555477
   1.83730    -34.553863
   1.81517    -34.552128
   1.79303    -34.550278
   1.77089    -34.548317
   1.74876    -34.546253
   1.72662    -34.544093
   1.70448    -34.541847
   1.68235    -34.539525
   1.66021    -34.537138
   1.63808    -34.534703
   1.61594    -34.532233
   1.59380    -34.529749
   1.57167    -34.527271
   1.54953    -34.524826
   1.52739    -34.522442
   1.50526    -34.520154
   1.48312    -34.517999
   1.46099    -34.516020
   1.43885    -34.514262
   1.41671    -34.512771
   1.39458    -34.511587
   1.37244    -34.510740
   1.35031    -34.510242
   1.32817    -34.510082
   1.32817    -34.510082
   1.28390    -34.510619
   1.23962    -34.511878
   1.19535    -34.513286
   1.15108    -34.514337
   1.10681    -34.514656
   1.06254    -34.513990
   1.01826    -34.512183
   0.97399    -34.509159
   0.92972    -34.504901
   0.88545    -34.499449
   0.84117    -34.492895
   0.79690    -34.485379
   0.75263    -34.477094
   0.70836    -34.468280
   0.66408    -34.459218
   0.61981    -34.450213
   0.57554    -34.441555
   0.53127    -34.432601
   0.48700    -34.424950
   0.44272    -34.418589
   0.39845    -34.413393
   0.35418    -34.409194
   0.30991    -34.405826
   0.26563    -34.403142
   0.22136    -34.401028
   0.17709    -34.399395
   0.13282    -34.398179
   0.08854    -34.397335
   0.04427    -34.396835
   0.00000    -34.396669
 
# Band-Index    7
   0.00000    -34.228915
   0.04427    -34.229934
   0.08854    -34.232982
   0.13282    -34.238005
   0.17709    -34.244877
   0.22136    -34.253423
   0.26563    -34.263411
   0.30991    -34.274561
   0.35418    -34.286538
   0.39845    -34.298962
   0.44272    -34.311421
   0.48700    -34.323494
   0.53127    -34.334806
   0.57554    -34.345090
   0.61981    -34.354234
   0.66408    -34.362286
   0.70836    -34.369400
   0.75263    -34.375771
   0.79690    -34.381584
   0.84117    -34.386989
   0.88545    -34.392090
   0.92972    -34.396952
   0.97399    -34.402738
   1.01826    -34.409203
   1.06254    -34.415556
   1.10681    -34.421702
   1.15108    -34.427490
   1.19535    -34.432690
   1.23962    -34.436971
   1.28390    -34.439890
   1.32817    -34.440959
   1.32817    -34.440959
   1.35031    -34.440673
   1.37244    -34.439807
   1.39458    -34.438367
   1.41671    -34.436383
   1.43885    -34.433901
   1.46099    -34.430982
   1.48312    -34.427692
   1.50526    -34.424096
   1.52739    -34.420259
   1.54953    -34.416242
   1.57167    -34.412101
   1.59380    -34.407888
   1.61594    -34.403652
   1.63808    -34.399437
   1.66021    -34.395286
   1.68235    -34.391237
