#K-Path      Energy-Level
# NKPTS & NBANDS:  80  28
# Band-Index    1
   0.00000    -12.921645
   0.02431    -13.054422
   0.04862    -13.185086
   0.07293    -13.313452
   0.09724    -13.439373
   0.12155    -13.562712
   0.14586    -13.683340
   0.17017    -13.801148
   0.19448    -13.916043
   0.21879    -14.027922
   0.24310    -14.136701
   0.26741    -14.242303
   0.29172    -14.344658
   0.31603    -14.443702
   0.34034    -14.539376
   0.36465    -14.631633
   0.38896    -14.720423
   0.41327    -14.805702
   0.43758    -14.887430
   0.46189    -14.965561
   0.48620    -15.040064
   0.51051    -15.110907
   0.53482    -15.178065
   0.55913    -15.241510
   0.58344    -15.301222
   0.60775    -15.357171
   0.63206    -15.409347
   0.65637    -15.457726
   0.68068    -15.502288
   0.70499    -15.543021
   0.72930    -15.579912
   0.75361    -15.612949
   0.77792    -15.642126
   0.80223    -15.667430
   0.82654    -15.688852
   0.85085    -15.706386
   0.87516    -15.720032
   0.89947    -15.729778
   0.92378    -15.735628
   0.94809    -15.737576
   0.94809    -15.737576
   0.96597    -15.736711
   0.98385    -15.734118
   1.00173    -15.729798
   1.01961    -15.723752
   1.03748    -15.715984
   1.05536    -15.706498
   1.07324    -15.695301
   1.09112    -15.682392
   1.10899    -15.667790
   1.12687    -15.651496
   1.14475    -15.633522
   1.16263    -15.613880
   1.18051    -15.592581
   1.19838    -15.569637
   1.21626    -15.545061
   1.23414    -15.518871
   1.25202    -15.491083
   1.26989    -15.461713
   1.28777    -15.430787
   1.30565    -15.398326
   1.32353    -15.364352
   1.34141    -15.328890
   1.35928    -15.291968
   1.37716    -15.253612
   1.39504    -15.213853
   1.41292    -15.172724
   1.43079    -15.130264
   1.44867    -15.086508
   1.46655    -15.041495
   1.48443    -14.995271
   1.50231    -14.947881
   1.52018    -14.899378
   1.53806    -14.849810
   1.55594    -14.799241
   1.57382    -14.747734
   1.59169    -14.695357
   1.60957    -14.642197
   1.62745    -14.588406
   1.64533    -14.534845
 
 
# Band-Index    2
   1.64533    -14.534578
   1.62745    -14.529357
   1.60957    -14.577851
   1.59169    -14.626782
   1.57382    -14.675281
   1.55594    -14.723178
   1.53806    -14.770376
   1.52018    -14.816790
   1.50231    -14.862347
   1.48443    -14.906980
   1.46655    -14.950630
   1.44867    -14.993238
   1.43079    -15.034748
   1.41292    -15.075109
   1.39504    -15.114278
   1.37716    -15.152211
   1.35928    -15.188864
   1.34141    -15.224201
   1.32353    -15.258183
   1.30565    -15.290782
   1.28777    -15.321963
   1.26989    -15.351701
   1.25202    -15.379971
   1.23414    -15.406742
   1.21626    -15.431996
   1.19838    -15.455711
   1.18051    -15.477868
   1.16263    -15.498448
   1.14475    -15.517440
   1.12687    -15.534826
   1.10899    -15.550595
   1.09112    -15.564733
   1.07324    -15.577233
   1.05536    -15.588083
   1.03748    -15.597278
   1.01961    -15.604811
   1.00173    -15.610677
   0.98385    -15.614868
   0.96597    -15.617385
   0.94809    -15.618225
   0.94809    -15.618225
   0.92378    -15.616283
   0.89947    -15.610460
   0.87516    -15.600758
   0.85085    -15.587180
   0.82654    -15.569735
   0.80223    -15.548420
   0.77792    -15.523249
   0.75361    -15.494225
   0.72930    -15.461359
   0.70499    -15.424662
   0.68068    -15.384147
   0.65637    -15.339828
   0.63206    -15.291716
   0.60775    -15.239834
   0.58344    -15.184198
   0.55913    -15.124831
   0.53482    -15.061753
   0.51051    -14.994990
   0.48620    -14.924572
   0.46189    -14.850534
   0.43758    -14.772900
   0.41327    -14.691711
   0.38896    -14.607011
   0.36465    -14.518837
   0.34034    -14.427233
   0.31603    -14.332259
   0.29172    -14.233965
   0.26741    -14.132413
   0.24310    -14.027675
   0.21879    -13.919825
   0.19448    -13.808941
   0.17017    -13.695114
   0.14586    -13.578444
   0.12155    -13.459046
   0.09724    -13.337032
   0.07293    -13.212537
   0.04862    -13.085709
   0.02431    -12.956710
   0.00000    -12.921638
 
 
# Band-Index    3
   0.00000    -12.825736
   0.02431    -12.786925
   0.04862    -12.650493
   0.07293    -12.512574
   0.09724    -12.373418
   0.12155    -12.233321
   0.14586    -12.092600
   0.17017    -11.951611
   0.19448    -11.810748
   0.21879    -11.670446
   0.24310    -11.591757
   0.26741    -11.705015
   0.29172    -11.814487
   0.31603    -11.920150
   0.34034    -12.021981
   0.36465    -12.119962
   0.38896    -12.214071
   0.41327    -12.304288
   0.43758    -12.390603
   0.46189    -12.472996
   0.48620    -12.551451
   0.51051    -12.625957
   0.53482    -12.696499
   0.55913    -12.763069
   0.58344    -12.825652
   0.60775    -12.884243
   0.63206    -12.938828
   0.65637    -12.989403
   0.68068    -13.035959
   0.70499    -13.078488
   0.72930    -13.116985
   0.75361    -13.151444
   0.77792    -13.181859
   0.80223    -13.208228
   0.82654    -13.230549
   0.85085    -13.248815
   0.87516    -13.263028
   0.89947    -13.273180
   0.92378    -13.279270
   0.94809    -13.281301
   0.94809    -13.281301
   0.96597    -13.282013
   0.98385    -13.284159
   1.00173    -13.287749
   1.01961    -13.292805
   1.03748    -13.299359
   1.05536    -13.307446
   1.07324    -13.317106
   1.09112    -13.328388
   1.10899    -13.341343
   1.12687    -13.356016
   1.14475    -13.372460
   1.16263    -13.390721
   1.18051    -13.410842
   1.19838    -13.432860
   1.21626    -13.456800
   1.23414    -13.482683
   1.25202    -13.510512
   1.26989    -13.540277
   1.28777    -13.571961
   1.30565    -13.605527
   1.32353    -13.640926
   1.34141    -13.678092
   1.35928    -13.716949
   1.37716    -13.757413
   1.39504    -13.799381
   1.41292    -13.842746
   1.43079    -13.887394
   1.44867    -13.933204
   1.46655    -13.980049
   1.48443    -14.027800
   1.50231    -14.081857
   1.52018    -14.138653
   1.53806    -14.195540
   1.55594    -14.252400
   1.57382    -14.309116
   1.59169    -14.365563
   1.60957    -14.421552
   1.62745    -14.476208
   1.64533    -14.476208
 
 
# Band-Index    4
   1.64533    -14.476027
   1.62745    -14.426808
   1.60957    -14.376539
   1.59169    -14.326074
   1.57382    -14.275602
   1.55594    -14.225262
   1.53806    -14.175186
   1.52018    -14.125499
   1.50231    -14.076326
   1.48443    -14.025271
   1.46655    -13.969026
   1.44867    -13.913243
   1.43079    -13.858059
   1.41292    -13.803609
   1.39504    -13.750028
   1.37716    -13.697455
   1.35928    -13.646031
   1.34141    -13.595895
   1.32353    -13.547181
   1.30565    -13.500021
   1.28777    -13.454541
   1.26989    -13.410862
   1.25202    -13.369102
   1.23414    -13.329360
   1.21626    -13.291736
   1.19838    -13.256313
   1.18051    -13.223160
   1.16263    -13.192345
   1.14475    -13.163916
   1.12687    -13.137909
   1.10899    -13.114356
   1.09112    -13.093271
   1.07324    -13.074674
   1.05536    -13.058563
   1.03748    -13.044940
   1.01961    -13.033804
   1.00173    -13.025148
   0.98385    -13.018970
   0.96597    -13.015262
   0.94809    -13.014028
   0.94809    -13.014028
   0.92378    -13.012007
   0.89947    -13.005943
   0.87516    -12.995838
   0.85085    -12.981691
   0.82654    -12.963508
   0.80223    -12.941290
   0.77792    -12.915040
   0.75361    -12.884761
   0.72930    -12.850461
   0.70499    -12.812144
   0.68068    -12.769816
   0.65637    -12.723483
   0.63206    -12.673149
   0.60775    -12.618829
   0.58344    -12.560529
   0.55913    -12.498259
   0.53482    -12.432028
   0.51051    -12.361849
   0.48620    -12.287733
   0.46189    -12.209696
   0.43758    -12.127750
   0.41327    -12.041910
   0.38896    -11.952199
   0.36465    -11.858629
   0.34034    -11.761224
   0.31603    -11.660006
   0.29172    -11.554995
   0.26741    -11.446219
   0.24310    -11.531182
   0.21879    -11.599549
   0.19448    -11.736034
   0.17017    -11.873395
   0.14586    -12.011173
   0.12155    -12.148949
   0.09724    -12.286339
   0.07293    -12.423007
   0.04862    -12.558642
   0.02431    -12.692967
   0.00000    -12.825728
 
 
# Band-Index    5
   0.00000    -10.258059
   0.02431    -10.407276
   0.04862    -10.553107
   0.07293    -10.695489
   0.09724    -10.834368
   0.12155    -10.969699
   0.14586    -11.101437
   0.17017    -11.229553
   0.19448    -11.353998
   0.21879    -11.474743
   0.24310    -11.464437
   0.26741    -11.393481
   0.29172    -11.257897
   0.31603    -11.125026
   0.34034    -10.995498
   0.36465    -10.869965
   0.38896    -10.749086
   0.41327    -10.633506
   0.43758    -10.523840
   0.46189    -10.420635
   0.48620    -10.324356
   0.51051    -10.237516
   0.53482    -10.163418
   0.55913    -10.096742
   0.58344    -10.037321
   0.60775     -9.984877
   0.63206     -9.939024
   0.65637     -9.899309
   0.68068     -9.865227
   0.70499     -9.836244
   0.72930     -9.811832
   0.75361     -9.791477
   0.77792     -9.774702
   0.80223     -9.761071
   0.82654     -9.750196
   0.85085     -9.741751
   0.87516     -9.735463
   0.89947     -9.731122
   0.92378     -9.728578
   0.94809     -9.727737
   0.94809     -9.727737
   0.96597     -9.728267
   0.98385     -9.729832
   1.00173     -9.732352
   1.01961     -9.735708
   1.03748     -9.739728
   1.05536     -9.744216
   1.07324     -9.748940
   1.09112     -9.753645
   1.10899     -9.758096
   1.12687     -9.776613
   1.14475     -9.795694
   1.16263     -9.814366
   1.18051     -9.832225
   1.19838     -9.848885
   1.21626     -9.863984
   1.23414     -9.877196
   1.25202     -9.888226
   1.26989     -9.896805
   1.28777     -9.902712
   1.30565     -9.905748
   1.32353     -9.905753
   1.34141     -9.902594
   1.35928     -9.896170
   1.37716     -9.886409
   1.39504     -9.873260
   1.41292     -9.856698
   1.43079     -9.836717
   1.44867     -9.813326
   1.46655     -9.786552
   1.48443     -9.756432
   1.50231     -9.723019
   1.52018     -9.686371
   1.53806     -9.646548
   1.55594     -9.603633
   1.57382     -9.557707
   1.59169     -9.508860
   1.60957     -9.457201
   1.62745     -9.402877
   1.64533     -9.346154
 
 
# Band-Index    6
   1.64533     -9.346067
   1.62745     -9.287384
   1.60957     -9.228335
   1.59169     -9.180816
   1.57382     -9.196874
   1.55594     -9.243756
   1.53806     -9.292643
   1.52018     -9.340210
   1.50231     -9.385733
   1.48443     -9.428941
   1.46655     -9.469697
   1.44867     -9.507904
   1.43079     -9.543500
   1.41292     -9.576438
   1.39504     -9.606687
   1.37716     -9.634220
   1.35928     -9.659032
   1.34141     -9.681127
   1.32353     -9.700530
   1.30565     -9.717277
   1.28777     -9.731422
   1.26989     -9.743044
   1.25202     -9.752242
   1.23414     -9.759135
   1.21626     -9.763872
   1.19838     -9.766624
   1.18051     -9.767578
   1.16263     -9.766957
   1.14475     -9.764996
   1.12687     -9.761945
   1.10899     -9.757530
   1.09112     -9.738945
   1.07324     -9.721235
   1.05536     -9.704841
   1.03748     -9.690169
   1.01961     -9.677596
   1.00173     -9.667449
   0.98385     -9.659999
   0.96597     -9.655444
   0.94809     -9.653914
   0.94809     -9.653914
   0.92378     -9.654950
   0.89947     -9.658089
   0.87516     -9.663426
   0.85085     -9.671125
   0.82654     -9.681410
   0.80223     -9.694571
   0.77792     -9.710954
   0.75361     -9.730962
   0.72930     -9.755046
   0.70499     -9.783700
   0.68068     -9.817442
   0.65637     -9.856800
   0.63206     -9.902287
   0.60775     -9.954378
   0.58344    -10.013474
   0.55913    -10.079894
   0.53482    -10.153831
   0.51051    -10.235336
   0.48620    -10.319035
   0.46189    -10.407884
   0.43758    -10.503791
   0.41327    -10.606382
   0.38896    -10.715173
   0.36465    -10.829614
   0.34034    -10.949078
   0.31603    -11.072933
   0.29172    -11.200533
   0.26741    -11.331239
   0.24310    -11.333707
   0.21879    -11.217488
   0.19448    -11.097595
   0.17017    -10.974065
   0.14586    -10.846935
   0.12155    -10.716246
   0.09724    -10.582043
   0.07293    -10.444375
   0.04862    -10.303305
   0.02431    -10.158888
   0.00000    -10.258058
 
 
# Band-Index    7
   0.00000    -10.011202
   0.02431    -10.105509
   0.04862     -9.949697
   0.07293     -9.790706
   0.09724     -9.628618
   0.12155     -9.463529
   0.14586     -9.295553
   0.17017     -9.124807
   0.19448     -8.951430
   0.21879     -8.775594
   0.24310     -8.597473
   0.26741     -8.417276
   0.29172     -8.235255
   0.31603     -8.051695
   0.34034     -7.866931
   0.36465     -7.681357
   0.38896     -7.495433
   0.41327     -7.309728
   0.43758     -7.124894
   0.46189     -6.941715
   0.48620     -6.761096
   0.51051     -6.584092
   0.53482     -6.411916
   0.55913     -6.294869
   0.58344     -6.341036
   0.60775     -6.384801
   0.63206     -6.426027
   0.65637     -6.464590
   0.68068     -6.500387
   0.70499     -6.533327
   0.72930     -6.563333
   0.75361     -6.590343
   0.77792     -6.614296
   0.80223     -6.635143
   0.82654     -6.652848
   0.85085     -6.667375
   0.87516     -6.678702
   0.89947     -6.686806
   0.92378     -6.691674
   0.94809     -6.693298
   0.94809     -6.693298
   0.96597     -6.694518
   0.98385     -6.698269
   1.00173     -6.704799
   1.01961     -6.714502
   1.03748     -6.727872
   1.05536     -6.745448
   1.07324     -6.767766
   1.09112     -6.795281
   1.10899     -6.828336
   1.12687     -6.867104
   1.14475     -6.956357
   1.16263     -7.053030
   1.18051     -7.150433
   1.19838     -7.248238
   1.21626     -7.346164
   1.23414     -7.443971
   1.25202     -7.541447
   1.26989     -7.638401
   1.28777     -7.734667
   1.30565     -7.830095
   1.32353     -7.924544
   1.34141     -8.017881
   1.35928     -8.109987
   1.37716     -8.200753
   1.39504     -8.290067
   1.41292     -8.377829
   1.43079     -8.463940
   1.44867     -8.548301
   1.46655     -8.630809
   1.48443     -8.711357
   1.50231     -8.789815
   1.52018     -8.866015
   1.53806     -8.939655
   1.55594     -9.009995
   1.57382     -9.073696
   1.59169     -9.101921
   1.60957     -9.061905
   1.62745     -9.005688
   1.64533     -8.945167
 
 
# Band-Index    8
   1.64533     -8.945059
   1.62745     -8.881822
   1.60957     -8.816292
   1.59169     -8.748752
   1.57382     -8.679361
   1.55594     -8.608239
   1.53806     -8.535508
   1.52018     -8.461280
   1.50231     -8.385675
   1.48443     -8.308818
   1.46655     -8.230846
   1.44867     -8.151901
   1.43079     -8.072146
   1.41292     -7.991757
   1.39504     -7.910929
   1.37716     -7.829877
   1.35928     -7.748844
   1.34141     -7.668100
   1.32353     -7.587950
   1.30565     -7.508732
   1.28777     -7.430818
   1.26989     -7.354636
   1.25202     -7.280644
   1.23414     -7.209337
   1.21626     -7.141243
   1.19838     -7.076904
   1.18051     -7.016860
   1.16263     -6.961611
   1.14475     -6.911585
   1.12687     -6.860805
   1.10899     -6.766858
   1.09112     -6.675116
   1.07324     -6.586350
   1.05536     -6.501584
   1.03748     -6.422185
   1.01961     -6.350039
   1.00173     -6.287742
   0.98385     -6.238690
   0.96597     -6.206853
   0.94809     -6.195756
   0.94809     -6.195756
   0.92378     -6.194261
   0.89947     -6.189786
   0.87516     -6.182337
   0.85085     -6.171934
   0.82654     -6.158605
   0.80223     -6.142383
   0.77792     -6.123316
   0.75361     -6.101456
   0.72930     -6.076866
   0.70499     -6.049626
   0.68068     -6.019823
   0.65637     -5.987562
   0.63206     -5.952966
   0.60775     -5.981313
   0.58344     -6.091957
   0.55913     -6.245861
   0.53482     -6.349633
   0.51051     -6.494332
   0.48620     -6.647731
   0.46189     -6.808303
   0.43758     -6.974557
   0.41327     -7.145120
   0.38896     -7.318783
   0.36465     -7.494504
   0.34034     -7.671401
   0.31603     -7.848729
   0.29172     -8.025885
   0.26741     -8.202355
   0.24310     -8.377706
   0.21879     -8.551574
   0.19448     -8.723654
   0.17017     -8.893689
   0.14586     -9.061449
   0.12155     -9.226746
   0.09724     -9.389427
   0.07293     -9.549327
   0.04862     -9.706327
   0.02431     -9.860317
   0.00000    -10.011201
 
 
# Band-Index    9
   0.00000     -5.524498
   0.02431     -5.558831
   0.04862     -5.597972
   0.07293     -5.640634
   0.09724     -5.685552
   0.12155     -5.731511
   0.14586     -5.777355
   0.17017     -5.821999
   0.19448     -5.864411
   0.21879     -5.903944
   0.24310     -5.940634
   0.26741     -5.971370
   0.29172     -5.995328
   0.31603     -6.011715
   0.34034     -6.020434
   0.36465     -6.022082
   0.38896     -6.014690
   0.41327     -5.997569
   0.43758     -6.034727
   0.46189     -6.089862
   0.48620     -6.143720
   0.51051     -6.196006
   0.53482     -6.246464
   0.55913     -6.215081
   0.58344     -6.087263
   0.60775     -5.937432
   0.63206     -5.883935
   0.65637     -5.800225
   0.68068     -5.730040
   0.70499     -5.672641
   0.72930     -5.626753
   0.75361     -5.590797
   0.77792     -5.563126
   0.80223     -5.542187
   0.82654     -5.526627
   0.85085     -5.515324
   0.87516     -5.507397
   0.89947     -5.502187
   0.92378     -5.499238
   0.94809     -5.498284
   0.94809     -5.498284
   0.96597     -5.490879
   0.98385     -5.469936
   1.00173     -5.438407
   1.01961     -5.399377
   1.03748     -5.368093
   1.05536     -5.368961
   1.07324     -5.371516
   1.09112     -5.375043
   1.10899     -5.378490
   1.12687     -5.380746
   1.14475     -5.380869
   1.16263     -5.378160
   1.18051     -5.372172
   1.19838     -5.362666
   1.21626     -5.349562
   1.23414     -5.332892
   1.25202     -5.312755
   1.26989     -5.289286
   1.28777     -5.262641
   1.30565     -5.232972
   1.32353     -5.200425
   1.34141     -5.165139
   1.35928     -5.127238
   1.37716     -5.086831
   1.39504     -5.044019
   1.41292     -4.998888
   1.43079     -4.951523
   1.44867     -4.901991
   1.46655     -4.850359
   1.48443     -4.796683
   1.50231     -4.741026
   1.52018     -4.683439
   1.53806     -4.623974
   1.55594     -4.562683
   1.57382     -4.499628
   1.59169     -4.434863
   1.60957     -4.368459
   1.62745     -4.300497
   1.64533     -4.231103
 
 
# Band-Index   10
   1.64533     -4.231054
   1.62745     -4.160346
   1.60957     -4.088508
   1.59169     -4.015914
   1.57382     -3.943228
   1.55594     -3.871941
   1.53806     -3.806250
   1.52018     -3.760223
   1.50231     -3.761913
   1.48443     -3.804234
   1.46655     -3.861019
   1.44867     -3.922540
   1.43079     -3.985947
   1.41292     -4.050240
   1.39504     -4.115030
   1.37716     -4.180152
   1.35928     -4.245542
   1.34141     -4.311174
   1.32353     -4.377039
   1.30565     -4.443119
   1.28777     -4.509368
   1.26989     -4.575716
   1.25202     -4.642054
   1.23414     -4.708223
   1.21626     -4.774025
   1.19838     -4.839226
   1.18051     -4.903561
   1.16263     -4.966744
   1.14475     -5.028493
   1.12687     -5.088540
   1.10899     -5.146640
   1.09112     -5.202586
   1.07324     -5.256174
   1.05536     -5.307165
   1.03748     -5.355155
   1.01961     -5.369002
   1.00173     -5.371145
   0.98385     -5.373617
   0.96597     -5.375517
   0.94809     -5.376224
   0.94809     -5.376224
   0.92378     -5.374491
   0.89947     -5.369297
   0.87516     -5.360645
   0.85085     -5.348546
   0.82654     -5.333013
   0.80223     -5.314063
   0.77792     -5.291719
   0.75361     -5.287954
   0.72930     -5.361999
   0.70499     -5.450307
   0.68068     -5.552883
   0.65637     -5.669023
   0.63206     -5.797613
   0.60775     -5.916178
   0.58344     -5.877361
   0.55913     -5.836707
   0.53482     -5.794430
   0.51051     -5.821781
   0.48620     -5.882481
   0.46189     -5.931881
   0.43758     -5.970131
   0.41327     -5.986636
   0.38896     -6.007873
   0.36465     -6.018704
   0.34034     -6.019742
   0.31603     -6.010459
   0.29172     -5.992977
   0.26741     -5.968778
